+1.26011807e-03
-4.35619031e+00
+1.20376765e+00
-1.26247183e+00
+6.56599360e-01
-7.19050563e-01
+4.54099497e-01
-4.95850060e-01
+3.47628121e-01
-3.74381303e-01
+2.81670334e-01
-2.97746013e-01
+2.36666705e-01
-2.44624032e-01
+2.03934409e-01
-2.05197672e-01
+1.79025545e-01
-1.74252010e-01
+1.59429174e-01
-1.48651883e-01
+1.43629641e-01
-1.26210583e-01
+1.30676653e-01
-1.04997839e-01
+1.19985464e-01
-8.25413973e-02
+1.11287169e-01
-5.37920338e-02
+1.04857111e-01
-1.11523182e-03
+1.03730729e-01
+2.59034785e-01
-4.44327050e-02
-3.43972001e-01
+6.92585158e-02
-1.77519648e-01
+6.88201705e-02
-1.35545483e-01
+6.57229334e-02
-1.14311466e-01
+6.22029169e-02
-1.00521831e-01
+5.86938664e-02
-9.03604487e-02
+5.53162969e-02
-8.23007066e-02
+5.21036769e-02
-7.56015252e-02
+4.90596407e-02
-6.98533835e-02
+4.61766992e-02
-6.48077769e-02
+4.34433480e-02
-6.03028440e-02
+4.08470069e-02
-5.62271719e-02
+3.83752798e-02
-5.25006196e-02
+3.60164813e-02
-4.90634451e-02
+3.37598273e-02
-4.58697852e-02
+3.15954688e-02
-4.28835588e-02
+2.95144539e-02
-4.00757876e-02
+2.75086580e-02
-3.74227842e-02
+2.55707037e-02
-3.49048884e-02
+2.36938801e-02
-3.25055630e-02
+2.18720659e-02
-3.02107327e-02
+2.00996585e-02
-2.80082893e-02
+1.83715108e-02
-2.58877158e-02
+1.66828730e-02
-2.38397961e-02
+1.50293415e-02
-2.18563863e-02
+1.34068130e-02
-1.99302337e-02
+1.18114436e-02
-1.80548306e-02
+1.02396111e-02
-1.62242957e-02
+8.68788197e-03
-1.44332759e-02
+7.15298079e-03
-1.26768658e-02
+5.63176193e-03
-1.09505389e-02
+4.12118358e-03
-9.25009075e-03
+2.61828315e-03
-7.57158959e-03
+1.12015389e-03
-5.91133466e-03
-3.76077714e-04
-4.26581999e-03
-1.87327414e-03
-2.63170327e-03
-3.37430892e-03
-1.00577894e-03
-4.88208906e-03
+6.15044992e-04
-6.39957815e-03
+2.23376648e-03
-7.92982049e-03
+3.85330561e-03
-9.47596676e-03
+5.47651716e-03
-1.10413018e-02
+7.10619913e-03
-1.26292746e-02
+8.74509662e-03
-1.42435323e-02
+1.03958999e-02
-1.58879572e-02
+1.20612349e-02
-1.75667096e-02
+1.37436438e-02
-1.92842763e-02
+1.54455517e-02
-2.10455273e-02
+1.71692146e-02
-2.28557806e-02
+1.89166402e-02
-2.47208809e-02
+2.06894707e-02
-2.66472908e-02
+2.24888092e-02
-2.86422032e-02
+2.43149645e-02
-3.07136763e-02
+2.61670729e-02
-3.28708018e-02
+2.80425317e-02
-3.51239158e-02
+2.99361426e-02
-3.74848694e-02
+3.18387896e-02
-3.99673821e-02
+3.37353592e-02
-4.25875190e-02
+3.56013771e-02
-4.53643570e-02
+3.73973958e-02
-4.83209557e-02
+3.90592525e-02
-5.14858567e-02
+4.04803151e-02
-5.48955639e-02
+4.14770916e-02
-5.85990337e-02
+4.17171706e-02
-6.26667656e-02
+4.05516770e-02
-6.72120839e-02
+3.65652271e-02
-7.24517164e-02
+2.60771654e-02
-7.89364493e-02
-4.04152691e-03
-8.90462838e-02
-1.57321241e-01
-2.14430868e-01
+4.60437286e-01
-7.93315114e-02
+2.16953361e-01
-9.29282944e-02
+1.83293149e-01
-1.03255360e-01
+1.76488954e-01
-1.13844745e-01
+1.79689061e-01
-1.25644109e-01
+1.88931028e-01
-1.39318203e-01
+2.03296445e-01
-1.55618486e-01
+2.23156287e-01
-1.75577534e-01
+2.49881688e-01
-2.00756170e-01
+2.86141522e-01
-2.33692062e-01
+3.36866621e-01
-2.78849799e-01
+4.11693671e-01
-3.44923012e-01
+5.31824240e-01
-4.51478262e-01
+7.54078194e-01
-6.54035139e-01
+1.29689367e+00
-1.20123655e+00
+4.39031646e+00
